; -*- fmf-version: 1.0 -*-
[*reference]
creator: Moritz Riede
created: 2006-04-17 18:55:38+02:00
title: IV measurement for substrate S419
substrate name: S419
pixel: 9
place: Materials Research Center Freiburg, Germany
comment: IV illuminated (annealed, 300s, 150C), batch3
[setup]
setup: omm-table
measurement type: IV
setup version: v5.4
[parameters]
pixel area: A_{pv} = 5.3 mm^2
substrate position: p = 3
table position:  x = 43.68 mm
filter: none
illumination intensity: I_{AM1.5} = 100 mW/cm^2
4-wire measurement: true
[fingerprints]
short circuit current density: J_{sc} = 10.97 mA/cm^2
open circuit voltage: V_{oc} = 548.4E-3 V
fill factor: FF = 49.5 %
efficiency: \eta = 2.95 %
[*data definitions]
voltage: V [V]
current: I(V) [A]
[*data]
-1.0001E+0	-619.4435E-6
-979.8538E-3	-617.8564E-6
-959.6146E-3	-618.3618E-6
-939.3853E-3	-617.8985E-6
-919.2203E-3	-617.3212E-6
-899.0263E-3	-615.8768E-6
-878.8603E-3	-614.3570E-6
-858.6615E-3	-614.4561E-6
-838.4995E-3	-613.9355E-6
-818.3020E-3	-614.6668E-6
-798.1012E-3	-612.5029E-6
-777.9009E-3	-613.0168E-6
-757.6681E-3	-611.9472E-6
-737.4001E-3	-611.4236E-6
-717.1948E-3	-610.7271E-6
-696.9632E-3	-609.2787E-6
-676.7555E-3	-610.5538E-6
-656.5509E-3	-608.6573E-6
-636.3529E-3	-608.2326E-6
-616.1953E-3	-607.6404E-6
-595.9996E-3	-606.1033E-6
-575.8312E-3	-605.5051E-6
-555.6375E-3	-604.2788E-6
-535.4658E-3	-605.1292E-6
-515.2396E-3	-603.3735E-6
-495.0401E-3	-603.5574E-6
-474.8107E-3	-602.0871E-6
-454.5738E-3	-601.3353E-6
-434.3631E-3	-600.9871E-6
-414.1301E-3	-599.9061E-6
-393.9316E-3	-600.5407E-6
-373.7396E-3	-598.3571E-6
-353.5774E-3	-599.4012E-6
-333.3842E-3	-597.8203E-6
-313.1892E-3	-597.0608E-6
-293.0269E-3	-596.0313E-6
-272.8313E-3	-594.5388E-6
-252.5702E-3	-594.8705E-6
-232.3715E-3	-592.8036E-6
-212.1338E-3	-594.1335E-6
-191.9433E-3	-592.2104E-6
-171.7057E-3	-591.3535E-6
-151.4694E-3	-590.3587E-6
-131.2624E-3	-588.6576E-6
-111.0531E-3	-588.4549E-6
-90.8962E-3	-586.8521E-6
-70.6921E-3	-587.5071E-6
-50.5369E-3	-584.9360E-6
-30.3387E-3	-583.9528E-6
-10.1751E-3	-582.2387E-6
10.0726E-3	-580.3017E-6
30.2714E-3	-578.3074E-6
50.4350E-3	-576.0104E-6
70.6354E-3	-574.9900E-6
90.7976E-3	-570.9802E-6
110.9898E-3	-569.3350E-6
131.1563E-3	-565.0034E-6
151.3991E-3	-560.5966E-6
171.6011E-3	-555.3702E-6
191.8355E-3	-548.9916E-6
212.0743E-3	-542.9493E-6
232.2732E-3	-533.9189E-6
252.5470E-3	-525.6512E-6
272.7578E-3	-513.4610E-6
292.9238E-3	-500.4683E-6
313.1058E-3	-484.4190E-6
333.2787E-3	-466.2500E-6
353.4818E-3	-445.9470E-6
373.6436E-3	-421.4964E-6
393.8403E-3	-395.7734E-6
414.0329E-3	-363.6608E-6
434.2661E-3	-328.2187E-6
454.4660E-3	-287.0696E-6
474.7057E-3	-239.4038E-6
494.9104E-3	-185.8034E-6
515.1410E-3	-123.0070E-6
535.3596E-3	-51.0572E-6
555.5272E-3	30.4833E-6
575.7329E-3	125.9792E-6
595.8990E-3	232.8356E-6
616.0940E-3	356.4951E-6
636.2556E-3	495.3751E-6
656.4544E-3	653.8820E-6
676.6341E-3	833.1253E-6
696.8742E-3	1.0349E-3
717.0712E-3	1.2565E-3
737.3039E-3	1.4987E-3
757.5759E-3	1.7662E-3
777.7752E-3	2.0605E-3
798.0132E-3	2.3760E-3
818.2210E-3	2.7101E-3
838.3837E-3	3.0713E-3
858.5837E-3	3.4581E-3
878.7446E-3	3.8630E-3
898.9432E-3	4.2915E-3
919.1081E-3	4.7390E-3
939.3050E-3	5.2133E-3
959.5116E-3	5.7082E-3
979.7490E-3	6.2309E-3
999.9551E-3	6.7795E-3